# Snapshot \t Redshift(z) \t scale factor(a)
0.000000000000000000e+00 5.993985172751433943e+00 1.429799999999999960e-01
1.000000000000000000e+00 4.995922772514689747e+00 1.667800000000000116e-01
2.000000000000000000e+00 3.996003197442046684e+00 2.001600000000000046e-01
3.000000000000000000e+00 3.496200710399712364e+00 2.224099999999999966e-01
4.000000000000000000e+00 2.998720409468969450e+00 2.500800000000000245e-01
5.000000000000000000e+00 2.809088485125509571e+00 2.625299999999999856e-01
6.000000000000000000e+00 2.632796890325861838e+00 2.752700000000000147e-01
7.000000000000000000e+00 2.464643314970723864e+00 2.886299999999999977e-01
8.000000000000000000e+00 2.300438958381465060e+00 3.029899999999999816e-01
9.000000000000000000e+00 2.147722622682489479e+00 3.176899999999999724e-01
1.000000000000000000e+01 2.002011347602893565e+00 3.331100000000000172e-01
1.100000000000000000e+01 1.859675712774171430e+00 3.496900000000000008e-01
1.200000000000000000e+01 1.727396699849993222e+00 3.666499999999999759e-01
1.300000000000000000e+01 1.601118480946806866e+00 3.844500000000000139e-01
1.400000000000000000e+01 1.477823479855294941e+00 4.035799999999999943e-01
1.500000000000000000e+01 1.363172322525758595e+00 4.231599999999999806e-01
1.600000000000000000e+01 1.253825869413329297e+00 4.436899999999999733e-01
1.700000000000000000e+01 1.146936321868693209e+00 4.657800000000000273e-01
1.800000000000000000e+01 1.047585896228346858e+00 4.883799999999999808e-01
1.900000000000000000e+01 9.516764901050003278e-01 5.123799999999999466e-01
2.000000000000000000e+01 8.613654977291338444e-01 5.372400000000000508e-01
2.100000000000000000e+01 7.741821020509545015e-01 5.636400000000000299e-01
2.200000000000000000e+01 6.910745087428553646e-01 5.913399999999999768e-01
2.300000000000000000e+01 6.127991742468226199e-01 6.200400000000000356e-01
2.400000000000000000e+01 5.372553842369831578e-01 6.505100000000000326e-01
2.500000000000000000e+01 4.652444027663815707e-01 6.824799999999999756e-01
2.600000000000000000e+01 3.966090332672271845e-01 7.160199999999999898e-01
2.700000000000000000e+01 3.319835899621716990e-01 7.507599999999999829e-01
2.800000000000000000e+01 2.695833227534722987e-01 7.876600000000000268e-01
2.900000000000000000e+01 2.101116933092923578e-01 8.263700000000000490e-01
3.000000000000000000e+01 1.541213674029959790e-01 8.664600000000000080e-01
3.100000000000000000e+01 1.000495022276002288e-01 9.090500000000000247e-01
3.200000000000000000e+01 4.852577276349445690e-02 9.537200000000000122e-01
3.300000000000000000e+01 0.000000000000000000e+00 1.000000000000000000e+00
